MD (m),Interval__unidentified (m),Drilling_hour__unidentified (h),Drilling_time__unidentified (min),ROP (m/h),WOB (klbs),BIT_RPM (rpm),TORQUE (kLbf.ft),Si (%),Shale (%),Dolomite (%),Limestone (%),BIT_DIAMETER (in),DOC (in/rev),Mu,MSE (ksi),cluster,MSE_min (ksi)
5311.2,0.2,0.1,6.2,1.96,0.0022342499999999997,45.323,0.46466406000000005,51.18901969,18.35180089,3.693264843,24.5293876,8.5,0.02837609896373438,880.8275528700909,71.39753053970564,2,18.322832098700538
5311.4,0.41,0.2,5.6,1.99,0.00332325,273.065,4.44012324,51.18901969,18.35180089,3.693264843,24.5293876,8.5,0.004781919994628873,5658.685876777252,4047.747584718573,2,18.322832098700538
5311.6,0.6,0.3,5.8,1.99,0.0028035,273.065,4.4106207600000005,51.18901969,18.35180089,3.693264843,24.5293876,8.5,0.004781919994628873,6663.198202247192,4020.8493905978785,2,18.322832098700538
5311.8,0.8,0.4,4.5,2.12,0.0022275,273.065,4.44012324,51.18901969,18.35180089,3.693264843,24.5293876,8.5,0.005094306727946338,8442.302060606062,3799.531519587104,2,18.322832098700538
5312.0,1.0,0.4,4.0,2.26,0.00310725,270.065,4.4843769600000005,53.24393211,17.73741358,4.039583596,22.8118297,8.5,0.005491050055850751,6112.367965242578,3560.1438201395868,2,18.322832098700538
5312.2,1.2,0.5,5.0,2.28,0.00440775,268.065,4.565508780000001,53.24393211,17.73741358,4.039583596,22.8118297,8.5,0.0055809740174957555,4386.880490045943,3566.1607962106095,2,18.322832098700538
5312.4,1.4,0.6,5.2,2.29,0.00441675,268.065,4.565508780000001,53.24393211,17.73741358,4.039583596,22.8118297,8.5,0.005605451973712843,4377.941355068773,3550.5882040520432,2,18.322832098700538
5312.6,1.6,0.7,4.3,2.34,0.00422325,268.065,4.62451374,53.24393211,17.73741358,4.039583596,22.8118297,8.5,0.005727841754798276,4637.702205647311,3519.6275839892887,2,18.322832098700538
5312.8,1.8,0.8,4.6,2.37,0.004491,268.065,4.6835187000000005,53.24393211,17.73741358,4.039583596,22.8118297,8.5,0.0058012756234495375,4416.8513026052115,3519.4159562308923,2,18.322832098700538
5313.0,2.0,0.8,4.3,2.41,0.0042975,268.065,4.690894320000001,62.86031309,30.84837209,0.276234214,6.015080606,8.5,0.005899187448317884,4622.994094240838,3466.4520869418175,0,11.912269553328606
5313.2,2.2,0.9,3.6,2.47,0.0046619999999999995,268.208,4.7203968000000005,62.86031309,30.84837209,0.276234214,6.015080606,8.5,0.006042831620732168,4288.345945945946,3405.336912993131,0,11.912269553328606
5313.4,2.4,1.0,4.0,2.51,0.004891499999999999,268.065,4.89003606,62.86031309,30.84837209,0.276234214,6.015080606,8.5,0.00614396701048875,4234.02656853726,3469.647544178112,0,11.912269553328606
5313.6,2.6,1.0,4.1,2.53,0.0043402499999999995,268.065,4.76465052,62.86031309,30.84837209,0.276234214,6.015080606,8.5,0.006192922922922923,4649.431788491447,3353.955230219961,0,11.912269553328606
5313.8,2.8,1.1,3.8,2.57,0.004657499999999999,268.065,4.749899280000001,62.86031309,30.84837209,0.276234214,6.015080606,8.5,0.006290834747791269,4319.317333333335,3291.5337335171102,0,11.912269553328606
5314.0,3.0,1.1,3.0,2.63,0.0043335000000000005,268.208,4.779401760000001,67.29792241,26.89711671,0.199534287,5.605426594,8.5,0.006434270106285668,4671.090841121495,3238.1446562996202,0,11.912269553328606
5314.2,3.2,1.2,4.0,2.65,0.00490275,267.065,4.904787300000001,67.29792241,26.89711671,0.199534287,5.605426594,8.5,0.006510947085291346,4237.0540614961,3283.9640489383987,0,11.912269553328606
5314.4,3.4,1.3,3.8,2.68,0.00435825,268.065,4.816279860000001,67.29792241,26.89711671,0.199534287,5.605426594,8.5,0.006560092266179224,4680.401941146103,3200.5441358902376,0,11.912269553328606
5314.6,3.6,1.3,4.8,2.67,0.00413325,268.065,4.668767460000001,67.29792241,26.89711671,0.199534287,5.605426594,8.5,0.006535614309962136,4784.03274904736,3114.1375833196166,0,11.912269553328606
5314.8,3.8,1.4,4.4,2.67,0.00401625,268.065,4.61713812,67.29792241,26.89711671,0.199534287,5.605426594,8.5,0.006535614309962136,4868.954352941177,3079.699633008618,0,11.912269553328606
5315.0,4.0,1.5,3.6,2.7,0.0046619999999999995,268.065,4.80890424,66.87286148,24.30324084,0.186007292,8.637890389,8.5,0.006609048178613397,4368.752432432433,3171.9733848211285,0,11.912269553328606
5315.2,4.2,1.5,3.2,2.73,0.004311,265.065,4.668767460000001,66.87286148,24.30324084,0.186007292,8.637890389,8.5,0.006758114236130761,4586.778789144051,3011.6114696602363,0,11.912269553328606
5315.4,4.4,1.6,4.2,2.74,0.004464,263.065,4.65401622,66.87286148,24.30324084,0.186007292,8.637890389,8.5,0.006834437243013451,4415.575161290322,2968.5716859958284,0,11.912269553328606
5315.6,4.6,1.7,3.0,2.78,0.00411075,263.065,4.668767460000001,66.87286148,24.30324084,0.186007292,8.637890389,8.5,0.006934210049480799,4810.217931034484,2935.1304016899726,0,11.912269553328606
5315.8,4.8,1.7,3.4,2.8,0.0045899999999999995,263.065,4.60238688,66.87286148,24.30324084,0.186007292,8.637890389,8.5,0.006984096452714475,4246.723764705883,2872.73481420971,0,11.912269553328606
5316.0,5.0,1.8,5.3,2.78,0.004529249999999999,263.065,4.52863068,68.27759421,24.18342583,0.193131691,7.345848277,8.5,0.006934210049480799,4234.7149925484355,2847.033236637366,0,11.912269553328606
5316.2,5.2,1.9,5.4,2.75,0.0069615,180.418,3.7173124800000004,68.27759421,24.18342583,0.193131691,7.345848277,8.5,0.010001568117741392,2261.568868778281,1620.2810559574625,0,11.912269553328606
5316.4,5.4,2.0,4.0,2.76,0.00475875,267.065,4.46962572,68.27759421,24.18342583,0.193131691,7.345848277,8.5,0.006781212813360043,3977.9731063829786,2873.337046865082,0,11.912269553328606
5316.6,5.6,2.0,1.6,2.82,0.0040545,268.065,4.417996380000001,68.27759421,24.18342583,0.193131691,7.345848277,8.5,0.006902783653218435,4614.999156492787,2790.1231704235033,0,11.912269553328606
5316.8,5.8,2.1,4.6,2.82,0.007011,267.065,4.76465052,68.27759421,24.18342583,0.193131691,7.345848277,8.5,0.006928630483215696,2878.2907317073173,2997.8378885802176,0,11.912269553328606
5317.0,6.0,2.1,4.0,2.82,0.006372,267.065,4.6097625,75.31775705,18.67023467,0.025281197,5.986727088,8.5,0.006928630483215696,3063.983050847458,2900.382590581298,0,11.912269553328606
5317.2,6.2,2.2,3.1,2.85,0.00682875,267.065,4.6097625,75.31775705,18.67023467,0.025281197,5.986727088,8.5,0.007002339318143523,2859.0444810543663,2869.8552592323194,0,11.912269553328606
5317.4,6.4,2.2,3.5,2.86,0.00766575,267.065,4.71302118,75.31775705,18.67023467,0.025281197,5.986727088,8.5,0.007026908929786132,2603.9240622248312,2923.884859410109,0,11.912269553328606
5317.6,6.6,2.3,4.1,2.86,0.0072517499999999995,267.065,4.63926498,75.31775705,18.67023467,0.025281197,5.986727088,8.5,0.007026908929786132,2709.504834005585,2878.125972314912,0,11.912269553328606
5317.8,6.8,2.4,4.3,2.86,0.00793575,267.065,4.74252366,75.31775705,18.67023467,0.025281197,5.986727088,8.5,0.007026908929786132,2531.075520272186,2942.1890144930976,0,11.912269553328606
5318.0,7.0,2.5,4.7,2.85,0.006723,267.065,4.6097625,72.39004652,21.78288014,0.008687188,5.818386154,8.5,0.007002339318143523,2904.016064257028,2869.8546512256216,0,11.912269553328606
5318.2,7.2,2.5,3.2,2.87,0.00615825,268.065,4.52863068,72.39004652,21.78288014,0.008687188,5.818386154,8.5,0.00702517343430387,3114.5346291560104,2810.1789701105777,0,11.912269553328606
5318.4,7.4,2.6,4.7,2.86,0.0076005,268.065,4.58026002,72.39004652,21.78288014,0.008687188,5.818386154,8.5,0.007000695478086782,2552.2989698046176,2852.16242553421,0,11.912269553328606
5318.6,7.6,2.7,6.6,2.82,0.00712575,268.065,4.4622501,72.39004652,21.78288014,0.008687188,5.818386154,8.5,0.006902783653218435,2652.203852226082,2818.0884063787244,0,11.912269553328606
5318.8,7.8,2.7,2.9,2.84,0.007551,268.065,4.47700134,72.39004652,21.78288014,0.008687188,5.818386154,8.5,0.006951739565652609,2511.113420738975,2807.4957015085647,0,11.912269553328606
5319.0,8.0,2.8,4.5,2.84,0.00804375,267.065,4.705645560000001,68.90759277,24.84643764,0.184008481,6.061961106,8.5,0.006977769706500914,2477.674338461539,2939.8695872033036,0,11.912269553328606
5319.2,8.2,2.9,4.6,2.83,0.0069187499999999996,267.065,4.61713812,68.90759277,24.84643764,0.184008481,6.061961106,8.5,0.006953200094858306,2826.368624390244,2894.7613176385985,0,11.912269553328606
5319.4,8.4,2.9,3.2,2.85,0.007220250000000001,267.065,4.63926498,68.90759277,24.84643764,0.184008481,6.061961106,8.5,0.007002339318143523,2721.325671548769,2888.224332534881,0,11.912269553328606
5319.6,8.6,3.0,4.0,2.85,0.007542,268.065,4.6466406000000005,68.90759277,24.84643764,0.184008481,6.061961106,8.5,0.006976217521869696,2609.372792362769,2903.649612605681,0,11.912269553328606
5319.8,8.8,3.1,3.2,2.87,0.0080685,267.065,4.65401622,68.90759277,24.84643764,0.184008481,6.061961106,8.5,0.007051478541428741,2442.97298382599,2877.221915273648,0,11.912269553328606
5320.0,9.0,3.2,5.1,2.86,0.008192249999999998,267.065,4.690894320000001,65.52869612,25.43286572,0.09192924,8.946508916,8.5,0.007026908929786132,2425.1356001098607,2910.1609344631884,0,11.912269553328606
5320.2,9.2,3.3,6.4,2.82,0.00721575,268.065,4.4474988600000005,65.52869612,25.43286572,0.09192924,8.946508916,8.5,0.006902783653218435,2610.465406922358,2808.773064535113,0,11.912269553328606
5320.4,9.4,3.4,7.5,2.78,0.0032332499999999996,186.58,2.5962182400000002,65.52869612,25.43286572,0.09192924,8.946508916,8.5,0.009776760460213668,3400.8344050104392,1157.6355351646603,0,11.912269553328606
5320.6,9.6,3.5,4.5,2.78,0.0051389999999999995,268.065,4.43274762,65.52869612,25.43286572,0.09192924,8.946508916,8.5,0.006804871828350089,3653.237968476357,2839.7246278782395,0,11.912269553328606
5320.8,9.8,3.5,4.6,2.77,0.006875999999999999,267.065,4.61713812,65.52869612,25.43286572,0.09192924,8.946508916,8.5,0.006805782425002653,2843.9409424083774,2957.462621418556,0,11.912269553328606
5321.0,10.0,3.6,3.5,2.78,0.00811575,268.065,4.727772420000001,64.87695484,24.09410179,0.205652715,10.82329065,8.5,0.006804871828350089,2467.2404546714724,3028.739751361397,0,11.912269553328606
5321.2,10.2,3.7,4.8,2.78,0.00801675,268.065,4.94904102,64.87695484,24.09410179,0.205652715,10.82329065,8.5,0.006804871828350089,2614.606208251474,3170.4876887197097,0,11.912269553328606
5321.4,10.4,3.7,3.5,2.79,0.0071460000000000004,268.065,4.8679092,64.87695484,24.09410179,0.205652715,10.82329065,8.5,0.006829349784567176,2885.1143576826194,3107.330928370559,0,11.912269553328606
5321.6,10.6,3.8,3.8,2.79,0.0081765,268.065,4.83840672,64.87695484,24.09410179,0.205652715,10.82329065,8.5,0.006829349784567176,2506.2160484314804,3088.5047935494117,0,11.912269553328606
5321.8,10.8,3.9,4.3,2.79,0.007929,268.065,4.73514804,64.87695484,24.09410179,0.205652715,10.82329065,8.5,0.006829349784567176,2529.290533484677,3022.591161771712,0,11.912269553328606
5322.0,11.0,3.9,4.1,2.8,0.007982999999999999,268.065,4.80152862,66.45557341,26.64365137,0.193756819,6.707018395,8.5,0.006853827740784262,2547.3989627959418,3054.017471788113,0,11.912269553328606
5322.2,11.2,4.0,4.8,2.79,0.007508249999999999,268.065,4.80152862,66.45557341,26.64365137,0.193756819,6.707018395,8.5,0.006829349784567176,2708.4721366496856,3064.9608768990697,0,11.912269553328606
5322.4,11.4,4.1,4.3,2.79,0.00808875,267.922,4.9195385400000005,66.45557341,26.64365137,0.193756819,6.707018395,8.5,0.0068329948641768865,2575.8853518776077,3138.6172803750005,0,11.912269553328606
5322.6,11.6,4.1,2.7,2.81,0.00764325,268.065,4.875284820000001,66.45557341,26.64365137,0.193756819,6.707018395,8.5,0.006878305697001349,2701.5033029143365,3089.8923512653155,0,11.912269553328606
5322.8,11.8,4.2,5.5,2.8,0.00812025,268.065,4.779401760000001,66.45557341,26.64365137,0.193756819,6.707018395,8.5,0.006853827740784262,2492.801596009975,3039.944659180836,0,11.912269553328606
5323.0,12.0,4.3,4.3,2.8,0.008163,268.065,4.82365548,67.63789744,24.48891354,0.15043269,7.722756326,8.5,0.006853827740784262,2502.7072987872107,3068.092108415483,0,11.912269553328606
5323.2,12.2,4.4,4.8,2.79,0.008192249999999998,268.065,4.84578234,67.63789744,24.48891354,0.15043269,7.722756326,8.5,0.006829349784567176,2505.2108321889596,3093.2128990166943,0,11.912269553328606
5323.4,12.4,4.4,4.0,2.79,0.00837225,268.065,4.89741168,67.63789744,24.48891354,0.15043269,7.722756326,8.5,0.006829349784567176,2477.467691480785,3126.170038313362,0,11.912269553328606
5323.6,12.6,4.5,4.5,2.79,0.008073,268.065,4.84578234,67.63789744,24.48891354,0.15043269,7.722756326,8.5,0.006829349784567176,2542.2164548494984,3093.2122133921202,0,11.912269553328606
5323.8,12.8,4.6,4.1,2.79,0.008401500000000001,268.065,4.89003606,67.63789744,24.48891354,0.15043269,7.722756326,8.5,0.006829349784567176,2465.1241992501336,3121.462191572334,0,11.912269553328606
5324.0,13.0,4.6,2.9,2.81,0.007661249999999999,268.065,4.80152862,68.35209058,23.13806892,0.058157318,8.451683181,8.5,0.006878305697001349,2654.382237885463,3043.1473956542886,0,11.912269553328606
5324.2,13.2,4.7,5.2,2.8,0.008442,268.065,4.82365548,68.35209058,23.13806892,0.058157318,8.451683181,8.5,0.006853827740784262,2419.9952238805968,3068.09371251826,0,11.912269553328606
5324.4,13.4,4.8,4.0,2.8,0.008293499999999999,268.065,4.82365548,68.35209058,23.13806892,0.058157318,8.451683181,8.5,0.006853827740784262,2463.3266630493763,3068.092858721621,0,11.912269553328606
5324.6,13.6,4.9,4.3,2.8,0.008073,268.065,4.7941530000000006,68.35209058,23.13806892,0.058157318,8.451683181,8.5,0.006853827740784262,2515.130434782609,3049.3267886665044,0,11.912269553328606
5324.8,13.8,4.9,4.7,2.8,0.0085455,268.065,4.84578234,68.35209058,23.13806892,0.058157318,8.451683181,8.5,0.006853827740784262,2401.6515639810427,3082.1679093109983,0,11.912269553328606
5325.0,14.0,5.0,3.9,2.8,0.007973999999999998,268.065,4.904787300000001,64.2449772,27.37357263,0.157891984,8.223558183,8.5,0.006853827740784262,2605.118735891648,3119.6942280805097,0,11.912269553328606
5325.2,14.2,5.1,3.4,2.81,0.008111249999999999,268.065,4.86053358,64.2449772,27.37357263,0.157891984,8.223558183,8.5,0.006878305697001349,2537.930563106797,3080.546030198055,0,11.912269553328606
5325.4,14.4,5.1,4.9,2.8,0.008226,267.922,4.82365548,64.2449772,27.37357263,0.157891984,8.223558183,8.5,0.006857485885195441,2483.5399562363236,3066.4558136270634,0,11.912269553328606
5325.6,14.6,5.2,6.7,2.78,0.005031,268.065,4.2114790200000005,64.2449772,27.37357263,0.157891984,8.223558183,8.5,0.006804871828350089,3545.389051878355,2697.9755003791574,0,11.912269553328606
5325.8,14.8,5.4,7.1,2.76,0.00597825,268.065,4.58026002,64.2449772,27.37357263,0.157891984,8.223558183,8.5,0.0067559159159159155,3244.887436958976,2955.49073347701,0,11.912269553328606
5326.0,15.0,5.5,7.5,2.73,0.00611775,268.065,4.43274762,63.71100033,29.65459152,0.173883261,6.460524895,8.5,0.006682482047264656,3068.773637366679,2891.739322598081,0,11.912269553328606
5326.2,15.2,5.6,5.5,2.72,0.0049770000000000005,268.065,4.381118280000001,63.71100033,29.65459152,0.173883261,6.460524895,8.5,0.006658004091047569,3728.2146835443045,2868.5597897092007,0,11.912269553328606
5326.4,15.4,5.6,3.6,2.73,0.006115499999999999,268.065,4.543381920000001,63.71100033,29.65459152,0.173883261,6.460524895,8.5,0.006682482047264656,3146.5225607064026,2963.9116261866566,0,11.912269553328606
5326.6,15.6,5.7,5.1,2.72,0.00645975,268.065,4.595011260000001,63.71100033,29.65459152,0.173883261,6.460524895,8.5,0.006658004091047569,3012.6899895506795,3008.6144495254407,0,11.912269553328606
5326.8,15.8,5.8,6.0,2.71,0.00681075,268.065,4.52863068,63.71100033,29.65459152,0.173883261,6.460524895,8.5,0.006633526134830483,2816.1484241823587,2976.095256751092,0,11.912269553328606
5327.0,16.0,5.9,5.4,2.7,0.0064125,268.065,4.543381920000001,65.68403039,24.85788215,0.034148508,9.423938957,8.5,0.006609048178613397,3000.7888842105267,2996.845294505365,0,11.912269553328606
5327.2,16.2,6.0,5.0,2.7,0.006768,268.065,4.60238688,65.68403039,24.85788215,0.034148508,9.423938957,8.5,0.006609048178613397,2880.0919148936173,3035.766928391009,0,11.912269553328606
5327.4,16.4,6.1,5.2,2.69,0.0065835,268.065,4.5728844,65.68403039,24.85788215,0.034148508,9.423938957,8.5,0.006584570222396309,2941.8258373205745,3027.518965654075,0,11.912269553328606
5327.6,16.6,6.2,6.5,2.68,0.006489,268.065,4.49175258,65.68403039,24.85788215,0.034148508,9.423938957,8.5,0.006560092266179224,2931.714174757282,2984.9011960070025,0,11.912269553328606
5327.8,16.8,6.3,5.2,2.67,0.0065295,268.065,4.49175258,65.68403039,24.85788215,0.034148508,9.423938957,8.5,0.006535614309962136,2913.529869055824,2996.080694357565,0,11.912269553328606
5328.0,17.0,6.4,5.9,2.66,0.006614999999999999,268.065,4.6097625,65.11502557,23.87913926,0.142154524,10.86368065,8.5,0.00651113635374505,2951.428571428572,3086.3541999420545,0,11.912269553328606
5328.2,17.2,6.5,7.5,2.64,0.00666,268.065,4.4843769600000005,65.11502557,23.87913926,0.142154524,10.86368065,8.5,0.006462180441310876,2851.750054054054,3025.151873825753,0,11.912269553328606
5328.4,17.4,6.6,5.8,2.64,0.0066195,268.065,4.47700134,65.11502557,23.87913926,0.142154524,10.86368065,8.5,0.006462180441310876,2864.4788035350102,3020.176125211696,0,11.912269553328606
5328.6,17.6,6.7,3.1,2.65,0.007548749999999999,268.065,4.61713812,65.11502557,23.87913926,0.142154524,10.86368065,8.5,0.006486658397527962,2590.486891207154,3102.9627848436644,0,11.912269553328606
5328.8,17.8,6.7,5.0,2.64,0.0081315,268.065,4.6835187000000005,65.11502557,23.87913926,0.142154524,10.86368065,8.5,0.006462180441310876,2439.412064194798,3159.499259705821,0,11.912269553328606
5329.0,18.0,6.8,5.7,2.63,0.00837,268.065,4.73514804,69.37834212,20.84268939,0.245798026,9.533170467,8.5,0.00643770248509379,2396.0268387096776,3206.474796860454,0,11.912269553328606
5329.2,18.2,6.9,4.7,2.63,0.008367749999999998,268.065,4.705645560000001,69.37834212,20.84268939,0.245798026,9.533170467,8.5,0.00643770248509379,2381.7385748857228,3186.497047638926,0,11.912269553328606
5329.4,18.4,7.0,4.6,2.63,0.0082755,268.065,4.7572749000000005,69.37834212,20.84268939,0.245798026,9.533170467,8.5,0.00643770248509379,2434.7119086460034,3221.4575557492317,0,11.912269553328606
5329.6,18.6,7.1,4.9,2.63,0.008376749999999999,268.065,4.749899280000001,69.37834212,20.84268939,0.245798026,9.533170467,8.5,0.00643770248509379,2401.554359387592,3216.4637038120004,0,11.912269553328606
5329.8,18.8,7.2,5.5,2.63,0.00829575,268.065,4.66139184,69.37834212,20.84268939,0.245798026,9.533170467,8.5,0.00643770248509379,2379.8168266883654,3156.5300292490947,0,11.912269553328606
5330.0,19.0,7.2,4.5,2.63,0.0081,268.065,4.668767460000001,68.44215506,20.69052131,0.201461949,10.66586168,8.5,0.00643770248509379,2441.1856000000002,3161.5233378611924,0,11.912269553328606
5330.2,19.2,7.3,4.0,2.63,0.008739,268.065,4.76465052,68.44215506,20.69052131,0.201461949,10.66586168,8.5,0.00643770248509379,2309.1539443872293,3226.454654700955,0,11.912269553328606
5330.4,19.4,7.4,6.7,2.62,0.0063135,268.065,4.292610840000001,68.44215506,20.69052131,0.201461949,10.66586168,8.5,0.006413224528876703,2879.618189593729,2917.8914350118534,0,11.912269553328606
5330.6,19.6,7.5,5.6,2.61,0.008136,267.065,4.49175258,68.44215506,20.69052131,0.201461949,10.66586168,8.5,0.006412668638720911,2338.2366371681414,3053.530999071495,0,11.912269553328606
5330.8,19.8,7.6,2.8,2.62,0.009216,268.065,4.74252366,68.44215506,20.69052131,0.201461949,10.66586168,8.5,0.006413224528876703,2179.46859375,3223.731427458042,0,11.912269553328606
5331.0,20.0,7.6,4.5,2.62,0.0100125,268.065,4.853157960000001,63.63823341,27.85565438,0.073639925,8.432472293,8.5,0.006413224528876703,2052.889024719101,3298.9384588642497,0,11.912269553328606
5331.2,20.2,7.7,5.5,2.62,0.0108765,267.922,4.816279860000001,63.63823341,27.85565438,0.073639925,8.432472293,8.5,0.00641664750686145,1875.4527430699213,3272.1295177984375,0,11.912269553328606
5331.4,20.4,7.8,7.1,2.6,0.0102105,268.065,4.80152862,63.63823341,27.85565438,0.073639925,8.432472293,8.5,0.00636426861644253,1991.664063464081,3288.9511690262107,0,11.912269553328606
5331.6,20.6,7.9,6.0,2.6,0.007760250000000001,268.065,4.595011260000001,63.63823341,27.85565438,0.073639925,8.432472293,8.5,0.00636426861644253,2507.808918527109,3147.479340992882,0,11.912269553328606
